Time [s],Sig [V]
-4.8488040E-02,-2.1096674E-01
-4.8483360E-02,-2.1085303E-01
-4.8478680E-02,-2.1074354E-01
-4.8474000E-02,-2.1062141E-01
-4.8469320E-02,-2.1050770E-01
-4.8464640E-02,-2.1036872E-01
-4.8459960E-02,-2.1029713E-01
-4.8455280E-02,-2.1014130E-01
-4.8450600E-02,-2.0998969E-01
-4.8445920E-02,-2.0994337E-01
-4.8441240E-02,-2.0975385E-01
-4.8436560E-02,-2.0966541E-01
-4.8431880E-02,-2.0952643E-01
-4.8427200E-02,-2.0940430E-01
-4.8422520E-02,-2.0928217E-01
-4.8417840E-02,-2.0913056E-01
-4.8413160E-02,-2.0904212E-01
-4.8408480E-02,-2.0888630E-01
-4.8403800E-02,-2.0874732E-01
-4.8399120E-02,-2.0861677E-01
-4.8394440E-02,-2.0850306E-01
-4.8389760E-02,-2.0841041E-01
-4.8385080E-02,-2.0830091E-01
-4.8380400E-02,-2.0817036E-01
-4.8375720E-02,-2.0803559E-01
-4.8371040E-02,-2.0785871E-01
-4.8366360E-02,-2.0779975E-01
-4.8361680E-02,-2.0767762E-01
-4.8357000E-02,-2.0756812E-01
-4.8352320E-02,-2.0742072E-01
-4.8347640E-02,-2.0728596E-01
-4.8342960E-02,-2.0718909E-01
-4.8338280E-02,-2.0706696E-01
-4.8333600E-02,-2.0700800E-01
-4.8328920E-02,-2.0687324E-01
-4.8324240E-02,-2.0670057E-01
-4.8319560E-02,-2.0659107E-01
-4.8314880E-02,-2.0644788E-01
-4.8310200E-02,-2.0630469E-01
-4.8305520E-02,-2.0616993E-01
-4.8300840E-02,-2.0608991E-01
-4.8296160E-02,-2.0595515E-01
-4.8291480E-02,-2.0579511E-01
-4.8286800E-02,-2.0561823E-01
-4.8282120E-02,-2.0554664E-01
-4.8277440E-02,-2.0546662E-01
-4.8272760E-02,-2.0531922E-01
-4.8268080E-02,-2.0520130E-01
-4.8263400E-02,-2.0509601E-01
-4.8258720E-02,-2.0493598E-01
-4.8254040E-02,-2.0484754E-01
-4.8249360E-02,-2.0464118E-01
-4.8244680E-02,-2.0451905E-01
-4.8240000E-02,-2.0432532E-01
-4.8235320E-02,-2.0417792E-01
-4.8230640E-02,-2.0413160E-01
-4.8225960E-02,-2.0399683E-01
-4.8221280E-02,-2.0382838E-01
-4.8216600E-02,-2.0372730E-01
-4.8211920E-02,-2.0356727E-01
-4.8207240E-02,-2.0343671E-01
-4.8202560E-02,-2.0328089E-01
-4.8197880E-02,-2.0312928E-01
-4.8193200E-02,-2.0301557E-01
-4.8188520E-02,-2.0283869E-01
-4.8183840E-02,-2.0274183E-01
-4.8179160E-02,-2.0257758E-01
-4.8174480E-02,-2.0248914E-01
-4.8169800E-02,-2.0234595E-01
-4.8165120E-02,-2.0224909E-01
-4.8160440E-02,-2.0211432E-01
-4.8155760E-02,-2.0194587E-01
-4.8151080E-02,-2.0181110E-01
-4.8146400E-02,-2.0169318E-01
-4.8141720E-02,-2.0159632E-01
-4.8137040E-02,-2.0145313E-01
-4.8132360E-02,-2.0132258E-01
-4.8127680E-02,-2.0112464E-01
-4.8123000E-02,-2.0095618E-01
-4.8118320E-02,-2.0085090E-01
-4.8113640E-02,-2.0073298E-01
-4.8108960E-02,-2.0054767E-01
-4.8104280E-02,-2.0046345E-01
-4.8099600E-02,-2.0024024E-01
-4.8094920E-02,-2.0018128E-01
-4.8090240E-02,-1.9997492E-01
-4.8085560E-02,-1.9995386E-01
-4.8080880E-02,-1.9981068E-01
-4.8076200E-02,-1.9970118E-01
-4.8071520E-02,-1.9949903E-01
-4.8066840E-02,-1.9931794E-01
-4.8062160E-02,-1.9918317E-01
-4.8057480E-02,-1.9902735E-01
-4.8052800E-02,-1.9891785E-01
-4.8048120E-02,-1.9881257E-01
-4.8043440E-02,-1.9863990E-01
-4.8038760E-02,-1.9847986E-01
-4.8034080E-02,-1.9838721E-01
-4.8029400E-02,-1.9826508E-01
-4.8024720E-02,-1.9811768E-01
-4.8020040E-02,-1.9797449E-01
-4.8015360E-02,-1.9783973E-01
-4.8010680E-02,-1.9767127E-01
-4.8006000E-02,-1.9755335E-01
-4.8001320E-02,-1.9741437E-01
-4.7996640E-02,-1.9719117E-01
-4.7991960E-02,-1.9712800E-01
-4.7987280E-02,-1.9695112E-01
-4.7982600E-02,-1.9680372E-01
-4.7977920E-02,-1.9672791E-01
-4.7973240E-02,-1.9658472E-01
-4.7968560E-02,-1.9647523E-01
-4.7963880E-02,-1.9635309E-01
-4.7959200E-02,-1.9616358E-01
-4.7954520E-02,-1.9604145E-01
-4.7949840E-02,-1.9595301E-01
-4.7945160E-02,-1.9583509E-01
-4.7940480E-02,-1.9564136E-01
-4.7935800E-02,-1.9553187E-01
-4.7931120E-02,-1.9536341E-01
-4.7926440E-02,-1.9522022E-01
-4.7921760E-02,-1.9508546E-01
-4.7917080E-02,-1.9491700E-01
-4.7912400E-02,-1.9479487E-01
-4.7907720E-02,-1.9465168E-01
-4.7903040E-02,-1.9451270E-01
-4.7898360E-02,-1.9441584E-01
-4.7893680E-02,-1.9426844E-01
-4.7889000E-02,-1.9415894E-01
-4.7884320E-02,-1.9399048E-01
-4.7879640E-02,-1.9388520E-01
-4.7874960E-02,-1.9369990E-01
-4.7870280E-02,-1.9362830E-01
-4.7865600E-02,-1.9345142E-01
-4.7860920E-02,-1.9332929E-01
-4.7856240E-02,-1.9321979E-01
-4.7851560E-02,-1.9308924E-01
-4.7846880E-02,-1.9301343E-01
-4.7842200E-02,-1.9290815E-01
-4.7837520E-02,-1.9274811E-01
-4.7832840E-02,-1.9260493E-01
-4.7828160E-02,-1.9243647E-01
-4.7823480E-02,-1.9234382E-01
-4.7818800E-02,-1.9218799E-01
-4.7814120E-02,-1.9206165E-01
-4.7809440E-02,-1.9188477E-01
-4.7804760E-02,-1.9173737E-01
-4.7800080E-02,-1.9161524E-01
-4.7795400E-02,-1.9148890E-01
-4.7790720E-02,-1.9138782E-01
-4.7786040E-02,-1.9124464E-01
-4.7781360E-02,-1.9114777E-01
-4.7776680E-02,-1.9097510E-01
-4.7772000E-02,-1.9083613E-01
-4.7767320E-02,-1.9067188E-01
-4.7762640E-02,-1.9054554E-01
-4.7757960E-02,-1.9040656E-01
-4.7753280E-02,-1.9026758E-01
-4.7748600E-02,-1.9012861E-01
-4.7743920E-02,-1.9001490E-01
-4.7739240E-02,-1.8991382E-01
-4.7734560E-02,-1.8977906E-01
-4.7729880E-02,-1.8965272E-01
-4.7725200E-02,-1.8947162E-01
-4.7720520E-02,-1.8936634E-01
-4.7715840E-02,-1.8924421E-01
-4.7711160E-02,-1.8910523E-01
-4.7706480E-02,-1.8897889E-01
-4.7701800E-02,-1.8885676E-01
-4.7697120E-02,-1.8874726E-01
-4.7692440E-02,-1.8867145E-01
-4.7687760E-02,-1.8853248E-01
-4.7683080E-02,-1.8833875E-01
-4.7678400E-02,-1.8823347E-01
-4.7673720E-02,-1.8810291E-01
-4.7669040E-02,-1.8792182E-01
-4.7664360E-02,-1.8780811E-01
-4.7659680E-02,-1.8767756E-01
-4.7655000E-02,-1.8758912E-01
-4.7650320E-02,-1.8751752E-01
-4.7645640E-02,-1.8732801E-01
-4.7640960E-02,-1.8718061E-01
-4.7636280E-02,-1.8704584E-01
-4.7631600E-02,-1.8689844E-01
-4.7626920E-02,-1.8675526E-01
-4.7622240E-02,-1.8659943E-01
-4.7617560E-02,-1.8651099E-01
-4.7612880E-02,-1.8634254E-01
-4.7608200E-02,-1.8620777E-01
-4.7603520E-02,-1.8607300E-01
-4.7598840E-02,-1.8595508E-01
-4.7594160E-02,-1.8587507E-01
-4.7589480E-02,-1.8571082E-01
-4.7584800E-02,-1.8560554E-01
-4.7580120E-02,-1.8544550E-01
-4.7575440E-02,-1.8534864E-01
-4.7570760E-02,-1.8518439E-01
-4.7566080E-02,-1.8505384E-01
-4.7561400E-02,-1.8495698E-01
-4.7556720E-02,-1.8476746E-01
-4.7552040E-02,-1.8460743E-01
-4.7547360E-02,-1.8448109E-01
-4.7542680E-02,-1.8434632E-01
-4.7538000E-02,-1.8425367E-01
-4.7533320E-02,-1.8410627E-01
-4.7528640E-02,-1.8392518E-01
-4.7523960E-02,-1.8381568E-01
-4.7519280E-02,-1.8372724E-01
-4.7514600E-02,-1.8351667E-01
-4.7509920E-02,-1.8344507E-01
-4.7505240E-02,-1.8327241E-01
-4.7500560E-02,-1.8310395E-01
-4.7495880E-02,-1.8297761E-01
-4.7491200E-02,-1.8285547E-01
-4.7486520E-02,-1.8274598E-01
-4.7481840E-02,-1.8261964E-01
-4.7477160E-02,-1.8251014E-01
-4.7472480E-02,-1.8236695E-01
-4.7467800E-02,-1.8225324E-01
-4.7463120E-02,-1.8209321E-01
-4.7458440E-02,-1.8193317E-01
-4.7453760E-02,-1.8188264E-01
-4.7449080E-02,-1.8169312E-01
-4.7444400E-02,-1.8155414E-01
-4.7439720E-02,-1.8139832E-01
-4.7435040E-02,-1.8126777E-01
-4.7430360E-02,-1.8117090E-01
-4.7425680E-02,-1.8099402E-01
-4.7421000E-02,-1.8089716E-01
-4.7416320E-02,-1.8073292E-01
-4.7411640E-02,-1.8058973E-01
-4.7406960E-02,-1.8048023E-01
-4.7402280E-02,-1.8032862E-01
-4.7397600E-02,-1.8020228E-01
-4.7392920E-02,-1.8005909E-01
-4.7388240E-02,-1.7990327E-01
-4.7383560E-02,-1.7973481E-01
-4.7378880E-02,-1.7960847E-01
-4.7374200E-02,-1.7946528E-01
-4.7369520E-02,-1.7935157E-01
-4.7364840E-02,-1.7922101E-01
-4.7360160E-02,-1.7911152E-01
-4.7355480E-02,-1.7894306E-01
-4.7350800E-02,-1.7882514E-01
-4.7346120E-02,-1.7869037E-01
-4.7341440E-02,-1.7854297E-01
-4.7336760E-02,-1.7844611E-01
-4.7332080E-02,-1.7829450E-01
-4.7327400E-02,-1.7819343E-01
-4.7322720E-02,-1.7805445E-01
-4.7318040E-02,-1.7786494E-01
-4.7313360E-02,-1.7775123E-01
-4.7308680E-02,-1.7762488E-01
-4.7304000E-02,-1.7744379E-01
-4.7299320E-02,-1.7730482E-01
-4.7294640E-02,-1.7716584E-01
-4.7289960E-02,-1.7710267E-01
-4.7285280E-02,-1.7693000E-01
-4.7280600E-02,-1.7683735E-01
-4.7275920E-02,-1.7660151E-01
-4.7271240E-02,-1.7645411E-01
-4.7266560E-02,-1.7632776E-01
-4.7261880E-02,-1.7617194E-01
-4.7257200E-02,-1.7602033E-01
-4.7252520E-02,-1.7587714E-01
-4.7247840E-02,-1.7575080E-01
-4.7243160E-02,-1.7564551E-01
-4.7238480E-02,-1.7551075E-01
-4.7233800E-02,-1.7540967E-01
-4.7229120E-02,-1.7522858E-01
-4.7224440E-02,-1.7506855E-01
-4.7219760E-02,-1.7496326E-01
-4.7215080E-02,-1.7470637E-01
-4.7210400E-02,-1.7459687E-01
-4.7205720E-02,-1.7446631E-01
-4.7201040E-02,-1.7436945E-01
-4.7196360E-02,-1.7422626E-01
-4.7191680E-02,-1.7403675E-01
-4.7187000E-02,-1.7388093E-01
-4.7182320E-02,-1.7377564E-01
-4.7177640E-02,-1.7367457E-01
-4.7172960E-02,-1.7346400E-01
-4.7168280E-02,-1.7338398E-01
-4.7163600E-02,-1.7321131E-01
-4.7158920E-02,-1.7300916E-01
-4.7154240E-02,-1.7289966E-01
-4.7149560E-02,-1.7274805E-01
-4.7144880E-02,-1.7260908E-01
-4.7140200E-02,-1.7246168E-01
-4.7135520E-02,-1.7235218E-01
-4.7130840E-02,-1.7217951E-01
-4.7126160E-02,-1.7201105E-01
-4.7121480E-02,-1.7190998E-01
-4.7116800E-02,-1.7170362E-01
-4.7112120E-02,-1.7160676E-01
-4.7107440E-02,-1.7142988E-01
-4.7102760E-02,-1.7129511E-01
-4.7098080E-02,-1.7115613E-01
-4.7093400E-02,-1.7102979E-01
-4.7088720E-02,-1.7089924E-01
-4.7084040E-02,-1.7075605E-01
-4.7079360E-02,-1.7052863E-01
-4.7074680E-02,-1.7034333E-01
-4.7070000E-02,-1.7022962E-01
-4.7065320E-02,-1.7009907E-01
-4.7060640E-02,-1.6994745E-01
-4.7055960E-02,-1.6980427E-01
-4.7051280E-02,-1.6966529E-01
-4.7046600E-02,-1.6947156E-01
-4.7041920E-02,-1.6937891E-01
-4.7037240E-02,-1.6916413E-01
-4.7032560E-02,-1.6909675E-01
-4.7027880E-02,-1.6892408E-01
-4.7023200E-02,-1.6877668E-01
-4.7018520E-02,-1.6861243E-01
-4.7013840E-02,-1.6840607E-01
-4.7009160E-02,-1.6822077E-01
-4.7004480E-02,-1.6809443E-01
-4.6999800E-02,-1.6791755E-01
-4.6995120E-02,-1.6783753E-01
-4.6990440E-02,-1.6768171E-01
-4.6985760E-02,-1.6756800E-01
-4.6981080E-02,-1.6743745E-01
-4.6976400E-02,-1.6730689E-01
-4.6971720E-02,-1.6713422E-01
-4.6967040E-02,-1.6695313E-01
-4.6962360E-02,-1.6682679E-01
-4.6957680E-02,-1.6664570E-01
-4.6953000E-02,-1.6645197E-01
-4.6948320E-02,-1.6636774E-01
-4.6943640E-02,-1.6615296E-01
-4.6938960E-02,-1.6600977E-01
-4.6934280E-02,-1.6587922E-01
-4.6929600E-02,-1.6570234E-01
-4.6924920E-02,-1.6560547E-01
-4.6920240E-02,-1.6541175E-01
-4.6915560E-02,-1.6523487E-01
-4.6910880E-02,-1.6508747E-01
-4.6906200E-02,-1.6494007E-01
-4.6901520E-02,-1.6477582E-01
-4.6896840E-02,-1.6463264E-01
-4.6892160E-02,-1.6447681E-01
-4.6887480E-02,-1.6432941E-01
-4.6882800E-02,-1.6413990E-01
-4.6878120E-02,-1.6400092E-01
-4.6873440E-02,-1.6386194E-01
-4.6868760E-02,-1.6368928E-01
-4.6864080E-02,-1.6358820E-01
-4.6859400E-02,-1.6343238E-01
-4.6854720E-02,-1.6325550E-01
-4.6850040E-02,-1.6308283E-01
-4.6845360E-02,-1.6296912E-01
-4.6840680E-02,-1.6283857E-01
-4.6836000E-02,-1.6268275E-01
-4.6831320E-02,-1.6251008E-01
-4.6826640E-02,-1.6235004E-01
-4.6821960E-02,-1.6220264E-01
-4.6817280E-02,-1.6205945E-01
-4.6812600E-02,-1.6184046E-01
-4.6807920E-02,-1.6174360E-01
-4.6803240E-02,-1.6157935E-01
-4.6798560E-02,-1.6140247E-01
-4.6793880E-02,-1.6128876E-01
-4.6789200E-02,-1.6115400E-01
-4.6784520E-02,-1.6095606E-01
-4.6779840E-02,-1.6080866E-01
-4.6775160E-02,-1.6065284E-01
-4.6770480E-02,-1.6047596E-01
-4.6765800E-02,-1.6029908E-01
-4.6761120E-02,-1.6017695E-01
-4.6756440E-02,-1.5998322E-01
-4.6751760E-02,-1.5986109E-01
-4.6747080E-02,-1.5973475E-01
-4.6742400E-02,-1.5960840E-01
-4.6737720E-02,-1.5943574E-01
-4.6733040E-02,-1.5927991E-01
-4.6728360E-02,-1.5911988E-01
-4.6723680E-02,-1.5895142E-01
-4.6719000E-02,-1.5881666E-01
-4.6714320E-02,-1.5861451E-01
-4.6709640E-02,-1.5850501E-01
-4.6704960E-02,-1.5832813E-01
-4.6700280E-02,-1.5821021E-01
-4.6695600E-02,-1.5810071E-01
-4.6690920E-02,-1.5789435E-01
-4.6686240E-02,-1.5775538E-01
-4.6681560E-02,-1.5760798E-01
-4.6676880E-02,-1.5741004E-01
-4.6672200E-02,-1.5729633E-01
-4.6667520E-02,-1.5721210E-01
-4.6662840E-02,-1.5704786E-01
-4.6658160E-02,-1.5681202E-01
-4.6653480E-02,-1.5668989E-01
-4.6648800E-02,-1.5652985E-01
-4.6644120E-02,-1.5636982E-01
-4.6639440E-02,-1.5623926E-01
-4.6634760E-02,-1.5604133E-01
-4.6630080E-02,-1.5595710E-01
-4.6625400E-02,-1.5573810E-01
-4.6620720E-02,-1.5562861E-01
-4.6616040E-02,-1.5546857E-01
-4.6611360E-02,-1.5531275E-01
-4.6606680E-02,-1.5514429E-01
-4.6602000E-02,-1.5495478E-01
-4.6597320E-02,-1.5479896E-01
-4.6592640E-02,-1.5465577E-01
-4.6587960E-02,-1.5451258E-01
-4.6583280E-02,-1.5434833E-01
-4.6578600E-02,-1.5407459E-01
-4.6573920E-02,-1.5393561E-01
-4.6569240E-02,-1.5383454E-01
-4.6564560E-02,-1.5369977E-01
-4.6559880E-02,-1.5352289E-01
-4.6555200E-02,-1.5341761E-01
-4.6550520E-02,-1.5324073E-01
-4.6545840E-02,-1.5310175E-01
-4.6541160E-02,-1.5289539E-01
-4.6536480E-02,-1.5278589E-01
-4.6531800E-02,-1.5268903E-01
-4.6527120E-02,-1.5252479E-01
-4.6522440E-02,-1.5234791E-01
-4.6517760E-02,-1.5216682E-01
-4.6513080E-02,-1.5201942E-01
-4.6508400E-02,-1.5190150E-01
-4.6503720E-02,-1.5164460E-01
-4.6499040E-02,-1.5153931E-01
-4.6494360E-02,-1.5143403E-01
-4.6489680E-02,-1.5126136E-01
-4.6485000E-02,-1.5115607E-01
-4.6480320E-02,-1.5100867E-01
-4.6475640E-02,-1.5083600E-01
-4.6470960E-02,-1.5062122E-01
-4.6466280E-02,-1.5047803E-01
-4.6461600E-02,-1.5033063E-01
-4.6456920E-02,-1.5020429E-01
-4.6452240E-02,-1.5004847E-01
-4.6447560E-02,-1.4989686E-01
-4.6442880E-02,-1.4971577E-01
-4.6438200E-02,-1.4955994E-01
-4.6433520E-02,-1.4938306E-01
-4.6428840E-02,-1.4924830E-01
-4.6424160E-02,-1.4908826E-01
-4.6419480E-02,-1.4892402E-01
-4.6414800E-02,-1.4870081E-01
-4.6410120E-02,-1.4852814E-01
-4.6405440E-02,-1.4841443E-01
-4.6400760E-02,-1.4830494E-01
-4.6396080E-02,-1.4811542E-01
-4.6391400E-02,-1.4795960E-01
-4.6386720E-02,-1.4782062E-01
-4.6382040E-02,-1.4767322E-01
-4.6377360E-02,-1.4750898E-01
-4.6372680E-02,-1.4739527E-01
-4.6368000E-02,-1.4722681E-01
-4.6363320E-02,-1.4704151E-01
-4.6358640E-02,-1.4692780E-01
-4.6353960E-02,-1.4674671E-01
-4.6349280E-02,-1.4656141E-01
-4.6344600E-02,-1.4641822E-01
-4.6339920E-02,-1.4627503E-01
-4.6335240E-02,-1.4613605E-01
-4.6330560E-02,-1.4593391E-01
-4.6325880E-02,-1.4579493E-01
-4.6321200E-02,-1.4563068E-01
-4.6316520E-02,-1.4544959E-01
-4.6311840E-02,-1.4535694E-01
-4.6307160E-02,-1.4516321E-01
-4.6302480E-02,-1.4504108E-01
-4.6297800E-02,-1.4485157E-01
-4.6293120E-02,-1.4473786E-01
-4.6288440E-02,-1.4454413E-01
-4.6283760E-02,-1.4437147E-01
-4.6279080E-02,-1.4424512E-01
-4.6274400E-02,-1.4403455E-01
-4.6269720E-02,-1.4389557E-01
-4.6265040E-02,-1.4379871E-01
-4.6260360E-02,-1.4363868E-01
-4.6255680E-02,-1.4347022E-01
-4.6251000E-02,-1.4331019E-01
-4.6246320E-02,-1.4308698E-01
-4.6241640E-02,-1.4299854E-01
-4.6236960E-02,-1.4280060E-01
-4.6232280E-02,-1.4258582E-01
-4.6227600E-02,-1.4247211E-01
-4.6222920E-02,-1.4229102E-01
-4.6218240E-02,-1.4216468E-01
-4.6213560E-02,-1.4198780E-01
-4.6208880E-02,-1.4187409E-01
-4.6204200E-02,-1.4172248E-01
-4.6199520E-02,-1.4151612E-01
-4.6194840E-02,-1.4134345E-01
-4.6190160E-02,-1.4127186E-01
-4.6185480E-02,-1.4112867E-01
-4.6180800E-02,-1.4100654E-01
-4.6176120E-02,-1.4082966E-01
-4.6171440E-02,-1.4065278E-01
-4.6166760E-02,-1.4048853E-01
-4.6162080E-02,-1.4031586E-01
-4.6157400E-02,-1.4013898E-01
-4.6152720E-02,-1.4000843E-01
-4.6148040E-02,-1.3983576E-01
-4.6143360E-02,-1.3964203E-01
-4.6138680E-02,-1.3951990E-01
-4.6134000E-02,-1.3935566E-01
-4.6129320E-02,-1.3924195E-01
-4.6124640E-02,-1.3906928E-01
-4.6119960E-02,-1.3893030E-01
-4.6115280E-02,-1.3879975E-01
-4.6110600E-02,-1.3860602E-01
-4.6105920E-02,-1.3841230E-01
-4.6101240E-02,-1.3826490E-01
-4.6096560E-02,-1.3807117E-01
-4.6091880E-02,-1.3795746E-01
-4.6087200E-02,-1.3776374E-01
-4.6082520E-02,-1.3764161E-01
-4.6077840E-02,-1.3746894E-01
-4.6073160E-02,-1.3732154E-01
-4.6068480E-02,-1.3714045E-01
-4.6063800E-02,-1.3698463E-01
-4.6059120E-02,-1.3684565E-01
-4.6054440E-02,-1.3667719E-01
-4.6049760E-02,-1.3649610E-01
-4.6045080E-02,-1.3633185E-01
-4.6040400E-02,-1.3621815E-01
-4.6035720E-02,-1.3608338E-01
-4.6031040E-02,-1.3591492E-01
-4.6026360E-02,-1.3573383E-01
-4.6021680E-02,-1.3560328E-01
-4.6017000E-02,-1.3543482E-01
-4.6012320E-02,-1.3529584E-01
-4.6007640E-02,-1.3512739E-01
-4.6002960E-02,-1.3493366E-01
-4.5998280E-02,-1.3482416E-01
-4.5993600E-02,-1.3460938E-01
-4.5988920E-02,-1.3446198E-01
-4.5984240E-02,-1.3431458E-01
-4.5979560E-02,-1.3414191E-01
-4.5974880E-02,-1.3400715E-01
-4.5970200E-02,-1.3383869E-01
-4.5965520E-02,-1.3363654E-01
-4.5960840E-02,-1.3352704E-01
-4.5956160E-02,-1.3334174E-01
-4.5951480E-02,-1.3317328E-01
-4.5946800E-02,-1.3304273E-01
-4.5942120E-02,-1.3284901E-01
-4.5937440E-02,-1.3269739E-01
-4.5932760E-02,-1.3249103E-01
-4.5928080E-02,-1.3240681E-01
-4.5923400E-02,-1.3215833E-01
-4.5918720E-02,-1.3203620E-01
-4.5914040E-02,-1.3183405E-01
-4.5909360E-02,-1.3172877E-01
-4.5904680E-02,-1.3157715E-01
-4.5900000E-02,-1.3140449E-01
-4.5895320E-02,-1.3118970E-01
-4.5890640E-02,-1.3108021E-01
-4.5885960E-02,-1.3092438E-01
-4.5881280E-02,-1.3073066E-01
-4.5876600E-02,-1.3055799E-01
-4.5871920E-02,-1.3044007E-01
-4.5867240E-02,-1.3027161E-01
-4.5862560E-02,-1.3017896E-01
-4.5857880E-02,-1.2999366E-01
-4.5853200E-02,-1.2984205E-01
-4.5848520E-02,-1.2956409E-01
-4.5843840E-02,-1.2947986E-01
-4.5839160E-02,-1.2933668E-01
-4.5834480E-02,-1.2917243E-01
-4.5829800E-02,-1.2897449E-01
-4.5825120E-02,-1.2885657E-01
-4.5820440E-02,-1.2863337E-01
-4.5815760E-02,-1.2850703E-01
-4.5811080E-02,-1.2841016E-01
-4.5806400E-02,-1.2822065E-01
-4.5801720E-02,-1.2808588E-01
-4.5797040E-02,-1.2792164E-01
-4.5792360E-02,-1.2777845E-01
-4.5787680E-02,-1.2758893E-01
-4.5783000E-02,-1.2735309E-01
-4.5778320E-02,-1.2723096E-01
-4.5773640E-02,-1.2701197E-01
-4.5768960E-02,-1.2693616E-01
-4.5764280E-02,-1.2678034E-01
-4.5759600E-02,-1.2664136E-01
-4.5754920E-02,-1.2648133E-01
-4.5750240E-02,-1.2624128E-01
-4.5745560E-02,-1.2604755E-01
-4.5740880E-02,-1.2591700E-01
-4.5736200E-02,-1.2571906E-01
-4.5731520E-02,-1.2562220E-01
-4.5726840E-02,-1.2543690E-01
-4.5722160E-02,-1.2524738E-01
-4.5717480E-02,-1.2510840E-01
-4.5712800E-02,-1.2500733E-01
-4.5708120E-02,-1.2477991E-01
-4.5703440E-02,-1.2459882E-01
-4.5698760E-02,-1.2447669E-01
-4.5694080E-02,-1.2429560E-01
-4.5689400E-02,-1.2411030E-01
-4.5684720E-02,-1.2395026E-01
-4.5680040E-02,-1.2375654E-01
-4.5675360E-02,-1.2361756E-01
-4.5670680E-02,-1.2347016E-01
-4.5666000E-02,-1.2328065E-01
-4.5661320E-02,-1.2313746E-01
-4.5656640E-02,-1.2293110E-01
-4.5651960E-02,-1.2278370E-01
-4.5647280E-02,-1.2260261E-01
-4.5642600E-02,-1.2245521E-01
-4.5637920E-02,-1.2230359E-01
-4.5633240E-02,-1.2217725E-01
-4.5628560E-02,-1.2197089E-01
-4.5623880E-02,-1.2183613E-01
-4.5619200E-02,-1.2169294E-01
-4.5614520E-02,-1.2152027E-01
-4.5609840E-02,-1.2134760E-01
-4.5605160E-02,-1.2117914E-01
-4.5600480E-02,-1.2105280E-01
-4.5595800E-02,-1.2083802E-01
-4.5591120E-02,-1.2071168E-01
-4.5586440E-02,-1.2056006E-01
-4.5581760E-02,-1.2037897E-01
-4.5577080E-02,-1.2022736E-01
-4.5572400E-02,-1.2013050E-01
-4.5567720E-02,-1.1996625E-01
-4.5563040E-02,-1.1979359E-01
-4.5558360E-02,-1.1965461E-01
-4.5553680E-02,-1.1946931E-01
-4.5549000E-02,-1.1927558E-01
-4.5544320E-02,-1.1910712E-01
-4.5539640E-02,-1.1898499E-01
-4.5534960E-02,-1.1879548E-01
-4.5530280E-02,-1.1869440E-01
-4.5525600E-02,-1.1853858E-01
-4.5520920E-02,-1.1838697E-01
-4.5516240E-02,-1.1822693E-01
-4.5511560E-02,-1.1808375E-01
-4.5506880E-02,-1.1790266E-01
-4.5502200E-02,-1.1770893E-01
-4.5497520E-02,-1.1754468E-01
-4.5492840E-02,-1.1735938E-01
-4.5488160E-02,-1.1728358E-01
-4.5483480E-02,-1.1706879E-01
-4.5478800E-02,-1.1689612E-01
-4.5474120E-02,-1.1682453E-01
-4.5469440E-02,-1.1668555E-01
-4.5464760E-02,-1.1647077E-01
-4.5460080E-02,-1.1631916E-01
-4.5455400E-02,-1.1609174E-01
-4.5450720E-02,-1.1596119E-01
-4.5446040E-02,-1.1583063E-01
-4.5441360E-02,-1.1567902E-01
-4.5436680E-02,-1.1546845E-01
-4.5432000E-02,-1.1535895E-01
-4.5427320E-02,-1.1521155E-01
-4.5422640E-02,-1.1500941E-01
-4.5417960E-02,-1.1482831E-01
-4.5413280E-02,-1.1466828E-01
-4.5408600E-02,-1.1449140E-01
-4.5403920E-02,-1.1431873E-01
-4.5399240E-02,-1.1418818E-01
-4.5394560E-02,-1.1399866E-01
-4.5389880E-02,-1.1383442E-01
-4.5385200E-02,-1.1372913E-01
-4.5380520E-02,-1.1349750E-01
-4.5375840E-02,-1.1339222E-01
